Time,X,Y,Theta,Simulation_reset
0.02,-0.0015977112732256347,1.6624336422511853e-07,-1.0377691641478196e-05
0.04,0.006985673252554924,1.9189704369596625e-07,-1.0431999287464093e-05
0.06,0.027330822361076597,-3.4880247034845696e-05,0.005310784649292739
0.08,0.04816687229578226,-0.00012515219033486057,0.009790304120594003
0.1,0.06491646305067385,-0.00012892446297573307,0.01622316350298037
0.12000000000000001,0.07682935772706229,-0.0001308528830300506,0.02271739129461892
0.14,0.08480392459198438,-0.00013085097964036455,0.022823482745404782
0.16,0.08950045703619916,-0.0001315255014438819,0.028570916894050252
0.18,0.09269755596737782,-0.00013152462838949733,0.040596135955520155
0.19999999999999998,0.09444567422550869,-0.00013128044512823844,0.046611133291535684
0.21999999999999997,0.09444567422550869,-0.00013128044512823844,0.046611133291535684
0.23999999999999996,0.09557284522082882,-0.0001309964795961192,0.05292020790118778
0.25999999999999995,0.09667300068391503,-7.042850106807186e-05,0.05929945041709051
0.27999999999999997,0.09691319623031393,8.915810182677451e-05,0.06713064399311104
0.3,0.09707115895237971,-0.0001375236078790481,0.07055581422363616
0.32,0.09715799787163919,-7.677927437520011e-05,0.0712306294649102
0.34,0.09721343135738736,-0.00019347678104569802,0.07836748231574887
0.36000000000000004,0.09737111827241032,-0.00047477039217327314,0.08212338438648077
0.38000000000000006,0.09734828807375458,-0.0005242494947333478,0.08805078064329973
0.4000000000000001,0.09730832515284356,-0.0005240240099961564,0.08805266152891048
0.4200000000000001,0.09736028367308053,-0.0005702213724958947,0.09399114313816118
0.4400000000000001,0.09746877838990506,-0.0006603982677949574,0.10587249470899265
0.46000000000000013,0.0975268652573067,-0.0007052953527012135,0.11181379902058823
0.48000000000000015,0.09758349149628279,-0.0007501867824218098,0.11775524146977155
0.5000000000000001,0.09758349149628279,-0.0007501867824218098,0.11775524146977155
0.5200000000000001,0.0976899734835192,-0.000840021393005973,0.12963838715085202
0.5400000000000001,0.09774239754320128,-0.0008884700991353602,0.13587630945416318
0.5600000000000002,0.09778926651366973,-0.0009299291193770953,0.14152189376862215
0.5800000000000002,0.09783721438422385,-0.0009749073139928551,0.1474638077413631
0.6000000000000002,0.09788467855219284,-0.001019895184326651,0.15340584228325296
0.6200000000000002,0.09793171861932826,-0.0010648881579822848,0.1593480116564157
0.6400000000000002,0.09797844544326312,-0.0011098838836406154,0.165290324912746
0.6600000000000003,0.09797844544326312,-0.0011098838836406154,0.165290324912746
0.6800000000000003,0.09807145831870069,-0.0011998859592451093,0.17717537640901262
0.7000000000000003,0.09811775284062295,-0.0012448857633008637,0.18311814467842402
0.7200000000000003,0.09816401460251148,-0.0012898846559938602,0.18906107963117785
0.7400000000000003,0.09816401460251148,-0.0012898846559938602,0.18906107963117785
0.7600000000000003,0.09825637560805427,-0.001379879633174944,0.2009474570845637
0.7800000000000004,0.09830243810839628,-0.001424875771825602,0.20689090239568522
0.8000000000000004,0.09834847235396141,-0.001469870915134294,0.2128345227607756
0.8200000000000004,0.09839370367668301,-0.001514861856023846,0.21877834456478293
0.8400000000000004,0.09844039886731187,-0.0015598581976781708,0.22472229504951605
0.8600000000000004,0.09845006953317095,-0.0015205300204486822,0.22507658969479682
0.8800000000000004,0.0984976907487063,-0.0013973624540555727,0.23257096855099513
0.9000000000000005,0.09854613055190396,-0.0016716228140823202,0.2365553591313438
0.9200000000000005,0.09858929963105473,-0.0017130840351451395,0.24220340874264537
0.9400000000000005,0.09863493400791144,-0.001758075706791405,0.2481481099603315
0.9600000000000005,0.09868050709322206,-0.0018030663850274074,0.2540929972319402
0.9800000000000005,0.09872602697998831,-0.0018480560866173004,0.26003807244952215
1.0000000000000004,0.098774076001305,-0.0018965846014746455,0.26627989093324433
1.0200000000000005,0.09881693709644915,-0.0019380322423633153,0.2719287970834325
1.0400000000000005,0.09886236012423164,-0.001983018717696052,0.2778744501895244
1.0600000000000005,0.09890775182150617,-0.0020280039491469373,0.28382030131087715
1.0800000000000005,0.09895312475740407,-0.0020729879845790824,0.28976635201846973
1.1000000000000005,0.09899848306118265,-0.002117970797937681,0.29571260456311543
1.1200000000000006,0.09904382882153008,-0.0021629523919980517,0.30165906089895567
1.1400000000000006,0.0990439229430148,-0.002162955453719552,0.30165903118938964
1.1600000000000006,0.0991344774977311,-0.0022529118113347223,0.31355259385034634
1.1800000000000006,0.09918242732891792,-0.0023014466249067058,0.3197963840750093
1.2000000000000006,0.09922511173852583,-0.0023428663728592885,0.3254469656499919
1.2200000000000006,0.09927043602220131,-0.002387841887137644,0.33139447054577237
1.2400000000000007,0.09931574133408409,-0.002432816098766152,0.33734219169337215
1.2600000000000007,0.09936104252052791,-0.002477789092295563,0.3432901303081959
1.2800000000000007,0.09940634056230845,-0.0025227608590742017,0.3492382883882508
1.3000000000000007,0.09945163575125325,-0.0025677314020021505,0.3551866677964082
1.3200000000000007,0.09949692838981021,-0.0026127007363980766,0.3611352702677061
1.3400000000000007,0.09954221861368064,-0.002657668853919015,0.36708409775788964
1.3600000000000008,0.09958750674005329,-0.0027026357576227056,0.3730331520979277
1.3800000000000008,0.09963279309116531,-0.0027476014624525195,0.3789824349928263
1.4000000000000008,0.09967807729471091,-0.0027925659598883944,0.38493194836437605
1.4200000000000008,0.0997233598553155,-0.0028375292532186983,0.3908816940173254
1.4400000000000008,0.09976864110490877,-0.0028824913569836835,0.3968316736295177
1.4600000000000009,0.09981392050554957,-0.0029274522627394713,0.40278188909431073
1.4800000000000009,0.09985919856750887,-0.0029724119733117254,0.40873234219032334
1.5000000000000009,0.09985919856750887,-0.0029724119733117254,0.40873234219032334
1.520000000000001,0.09994973374126737,-0.0030623277163580355,0.42063396920952556
1.540000000000001,0.09995643386728266,-0.00302602052450883,0.4212843371584829
1.560000000000001,0.10001029224017412,-0.002893531495384862,0.42876521198765266
1.580000000000001,0.10005569739587325,-0.0031638412706100254,0.4324640307525314
1.600000000000001,0.10010096936231676,-0.003208795839590846,0.4384156977956116
1.620000000000001,0.10014623565806327,-0.0032537485899007024,0.4443676125573656
1.640000000000001,0.10019149999050118,-0.0032986998559720385,0.45031977702918224
1.660000000000001,0.10019149999050118,-0.0032986998559720385,0.45031977702918224
1.680000000000001,0.10025306496302382,-0.003125797896841719,0.4584839990343157
1.700000000000001,0.10029569604298834,-0.003392311324090716,0.4618881706333724
1.720000000000001,0.10034097569568741,-0.0034365120034168537,0.4678410475880905
1.740000000000001,0.10034097569568741,-0.0034365120034168537,0.4678410475880905
1.7600000000000011,0.10039349967854419,-0.0034825260604182,0.4746868974172215
1.7800000000000011,0.10043874603612686,-0.0035154391553819274,0.4806407136893151
1.8000000000000012,0.10048400304110688,-0.003542851094137398,0.4865948742257165
1.8200000000000012,0.1005292548345129,-0.003564763902418213,0.49254931241332695
1.8400000000000012,0.10057450112814122,-0.0035811781261156977,0.49850396123094726
1.8600000000000012,0.1006215008181926,-0.003591581847402095,0.5047571287793329
1.8800000000000012,0.10066499538729669,-0.0035975085272705034,0.510413628869709
1.9000000000000012,0.10071195915579033,-0.0035965041816396195,0.5166669835263826
1.9200000000000013,0.10075545727208046,-0.0035918312133294164,0.5223233683834319
1.9400000000000013,0.1008232827340388,-0.0035731575214113494,0.531255371470437
1.9600000000000013,0.10082491302983901,-0.003528479561591271,0.5316135871940207
1.9800000000000013,0.10088235035436856,-0.0033365282964578345,0.5391176931026715
2.0000000000000013,0.1009277272421381,-0.0035385485449307046,0.542806442032504
2.0200000000000014,0.10093191672940509,-0.003492084363088216,0.5434623798237468
2.0400000000000014,0.10098971301715286,-0.0032923077106738413,0.5509720648321036
2.0600000000000014,0.10103507905457285,-0.0034832655060153413,0.5546615199447654
2.0800000000000014,0.10108030437356383,-0.0034424373480986124,0.560614593638337
2.1000000000000014,0.1011255219027388,-0.0033975246235547676,0.5665673217214279
2.1200000000000014,0.10117073644949563,-0.0033523724862225307,0.5725197973677739
2.1400000000000015,0.10121595057783953,-0.003307216540834865,0.5784719753993713
2.1600000000000015,0.10121697297550261,-0.0032647755552674164,0.5788342294926566
2.1800000000000015,0.1012801075149533,-0.003051207102323,0.5866668734655436
2.2000000000000015,0.10132541918957445,-0.003232139699450091,0.5903577700673631
2.2200000000000015,0.10137063944297237,-0.0031869801659776976,0.5963092046728807
2.2400000000000015,0.10141585245685054,-0.0031418154765324364,0.6022603889027398
2.2600000000000016,0.10141634014929987,-0.003099627080954363,0.6026227113188882
2.2800000000000016,0.10147589675948948,-0.002890312990921448,0.6101582194596459
2.3000000000000016,0.10152127105767818,-0.0030716104371399837,0.6138449456879727
2.3200000000000016,0.10156649217390532,-0.0030264447656367256,0.6197954173779263
2.3400000000000016,0.10161170298670559,-0.0029812753237312586,0.6257456508924587
2.3600000000000017,0.10161399491847908,-0.0029332868179089496,0.6264022925202308
2.3800000000000017,0.1016139664347108,-0.0027348572730076415,0.6283874209117917
2.4000000000000017,0.10168078767071714,-0.002898845013090346,0.63261015413515
2.4200000000000017,0.10174128365115079,-0.00269105106695865,0.6401223580513323
2.4400000000000017,0.10178664094519854,-0.0028717275854737243,0.6438140382062227
2.4600000000000017,0.1018347169556976,-0.0028244154623175127,0.6500595951783142
2.4800000000000018,0.10187704141445568,-0.0027813827157519835,0.6557123950086924
2.5000000000000018,0.10192513317899918,-0.002734064199544949,0.661957461540832
2.520000000000002,0.10196744760351248,-0.0026910296516674055,0.6676098377632996
2.540000000000002,0.10201266949124102,-0.0026458521461664793,0.6735582200593148
2.560000000000002,0.10205787301212821,-0.002600673480286227,0.6795063842684664
2.580000000000002,0.10205665559647815,-0.0025592565489071534,0.6798694475898807
2.600000000000002,0.10212274118663171,-0.0023432382227395548,0.6877007859513568
2.620000000000002,0.10216804053869025,-0.002523342089847009,0.6913958214377502
2.640000000000002,0.10221324863680885,-0.0024781663261391864,0.6973433404117803
2.660000000000002,0.1022584490722096,-0.0024329853594414834,0.7032906395670653
2.680000000000002,0.10230364798275218,-0.002387802469770739,0.7092377252234349
2.700000000000002,0.10234884675554513,-0.0023426183612365392,0.7151846001343446
2.720000000000002,0.10239404515541516,-0.0022974333318012802,0.7211312666307348
2.740000000000002,0.10243924348388168,-0.0022522474784430016,0.7270777266659605
2.760000000000002,0.10248444139562138,-0.002207060817821124,0.7330239820285951
2.780000000000002,0.1025386787355997,-0.0021528357445251543,0.7401592210772004
2.800000000000002,0.1025822857589894,-0.002110015974045626,0.7458065120086542
2.820000000000002,0.10262746815043676,-0.0020648258280840277,0.7517521360347178
2.840000000000002,0.1026726679005329,-0.0020196351221021575,0.75769756080601
2.860000000000002,0.1026693381310251,-0.0019754673685451873,0.7580579773847975
2.880000000000002,0.10273588543650736,-0.0017628119441086383,0.7655595005285694
2.900000000000002,0.10278122586199977,-0.0019424996825701591,0.7692561627885413
2.920000000000002,0.10282799880493289,-0.0018949407718826118,0.7754995053860109
2.940000000000002,0.10287164288578673,-0.0018521143684724942,0.7811456896775579
2.960000000000002,0.10286987652483774,-0.001810448528186908,0.7818081432510052
2.980000000000002,0.10293706891766262,-0.0015936272962142803,0.7896353156893537
3.000000000000002,0.10298237801824678,-0.0017735768325568948,0.7933281393256327
3.0200000000000022,0.10302757807555342,-0.0017283845545268432,0.7992722441407093
3.0400000000000023,0.10307431448676103,-0.0016808254578196957,0.80551461314463
3.0600000000000023,0.1031179738567845,-0.0016379893429677116,0.8111599086875706
3.0800000000000023,0.10316314320376865,-0.0015927894749680042,0.8171034787811856
3.1000000000000023,0.10320833030648553,-0.0015475891417785692,0.8230468711737756
3.1200000000000023,0.10325351706670866,-0.0015023880731718032,0.8289900906800429
3.1400000000000023,0.10329870349029431,-0.001457186257008175,0.8349331394202816
3.1600000000000024,0.10334388941404515,-0.0014119836988146204,0.8408760192861363
3.1800000000000024,0.10338907484548329,-0.0013667804047678928,0.8468187321780174
3.2000000000000024,0.10343425944553701,-0.0013215763362784123,0.8527612804647162
3.2200000000000024,0.1034794433897925,-0.001276371526369609,0.8587036658287199
3.2400000000000024,0.10352462685330252,-0.0012311651015224823,0.8646458990428578
3.2600000000000025,0.10351908717598732,-0.0011889863006673733,0.8650068136270898
3.2800000000000025,0.10358825195045009,-0.0009730069340907351,0.8728013141332914
3.3000000000000025,0.10363806935397597,-0.0011480562054991884,0.8770895598991476
3.3200000000000025,0.10368325861216567,-0.0011028356216341432,0.8830314631490609
3.3400000000000025,0.10372843633929725,-0.0010575931170978708,0.8889733931964585
3.3600000000000025,0.10377361185145688,-0.0010123344543662004,0.8949153195876649
3.3800000000000026,0.10381878663265501,-0.0009670609429646617,0.9008572378433668
3.4000000000000026,0.10386396089742717,-0.0009217731819749541,0.9067991455694464
3.4200000000000026,0.10385759017071501,-0.0008799908946163277,0.9071610612145291
3.4400000000000026,0.10392764376683648,-0.0006626622455196898,0.9146559016590621
3.4600000000000026,0.10397299265156063,-0.0008415631407387501,0.9183558338319524
3.4800000000000026,0.1040181719450224,-0.0007962281811146493,0.9242978047519125
3.5000000000000027,0.10406334194378511,-0.000750870406610378,0.9302398324176285
3.5200000000000027,0.10410850976708387,-0.0007054990281196839,0.9361818474695726
3.5400000000000027,0.10415367691985478,-0.0006601156385595511,0.9421238415499613
3.5600000000000027,0.10419884371021472,-0.000614720881166432,0.9480658115228446
3.5800000000000027,0.10424545056715266,-0.0005669778891602928,0.954306042782271
3.6000000000000028,0.10428919414348184,-0.0005238991220140326,0.9599496696896049
3.6200000000000028,0.10433434131921807,-0.0004784721782240505,0.9658915609903167
3.640000000000003,0.10437950599137352,-0.0004330355963130763,0.971833419572559
3.660000000000003,0.10442466975642248,-0.00038758939650126637,0.9777752471085371
3.680000000000003,0.10446983278852648,-0.0003421338801664719,0.9837170427029545
3.700000000000003,0.10451499474429313,-0.00029666938509059483,0.9896588051095084
3.720000000000003,0.10450936635555866,-0.0002563770908342106,0.9903235586987004
3.740000000000003,0.1045811659725945,-3.404348551856189e-05,0.9978417882677606
3.760000000000003,0.10457564125436371,-0.0002180680894206283,0.9962614243731455
3.780000000000003,0.10464903911561958,6.404139002487419e-06,1.004074299433458
3.800000000000003,0.10469293489225397,-0.0001749860014902038,1.0074721648730693
3.820000000000003,0.10473807724073916,-0.00012953808602106964,1.0134133228670545
3.840000000000003,0.10478462420971965,-8.173679783878701e-05,1.0196528700693575
3.860000000000003,0.1048283970762395,-3.857207449743995e-05,1.0252959358202143
3.880000000000003,0.10487352909000856,6.923257605736738e-06,1.0312371991218863
3.900000000000003,0.1049186786854549,5.2425072195200976e-05,1.0371784231371397
3.920000000000003,0.10496382813382941,9.793334762333525e-05,1.0431196097558313
3.940000000000003,0.10501035150356589,0.00014576241096947069,1.0493589583115277
3.960000000000003,0.10500455546301478,0.00018798576965055186,1.050017820174503
3.980000000000003,0.10507423657976932,0.0004065377625324221,1.0575054588689514
4.000000000000003,0.10506610002686814,0.00022177602746453317,1.0556218963200987
4.020000000000002,0.10513654826641858,0.0004423726614369715,1.0631365426821415
4.040000000000002,0.10518191128483932,0.00026299133156288226,1.0668285226700644
4.060000000000001,0.10517583333319154,0.0003049982982063226,1.0674877084397583
4.080000000000001,0.1052490326579141,0.0005264771224168455,1.0752727065074978
4.1000000000000005,0.10529431179729147,0.0003474295540522777,1.0789674748557068
4.12,0.10528420179391416,0.0003878785625111748,1.0793317166550165
4.14,0.10535935291459735,0.0006114911549154642,1.0871172535385636
4.159999999999999,0.10535134115124864,0.00042748513097415005,1.0852432848707028
4.179999999999999,0.10542157705182345,0.0006502156192711542,1.0927614447455682
4.199999999999998,0.10541535440413832,0.00046725203229218366,1.0911742048494113
4.219999999999998,0.10548571595576794,0.0006871340638113831,1.0986617026285153
4.2399999999999975,0.10553107124193087,0.0005083348409957402,1.102358926691833
4.259999999999997,0.10552374360256778,0.0005506793834969576,1.103019224987727
4.279999999999997,0.10559825431848587,0.0007729482479346716,1.1108077985014995
4.299999999999996,0.10564031530720007,0.0005921136122398024,1.1142108466137053
4.319999999999996,0.10568865511814315,0.0006400106314100066,1.1204481345325714
4.339999999999995,0.10568865511814315,0.0006400106314100066,1.1204481345325714
4.359999999999995,0.10578021797755867,0.0007333139183001265,1.1326261149731434
4.379999999999995,0.10578024755002226,0.0007589479401294457,1.1328825613142752
4.399999999999994,0.10584745332539727,0.0008013734752863029,1.1391029699102215
4.419999999999994,0.10588947115532778,0.0008181155849068436,1.1444823286418293
4.439999999999993,0.10593462186171378,0.0008638054994488016,1.1504239251616761
4.459999999999993,0.10597974518166338,0.000909557054533498,1.1563660333330767
4.479999999999992,0.106028081038985,0.0009575568619266331,1.1626036918247458
4.499999999999992,0.1060699681623064,0.0010011051449474988,1.1682505079915435
4.519999999999992,0.10611832910616414,0.0010490599206209302,1.1744875662523895
4.539999999999991,0.10616020820511614,0.0010926003773125143,1.1801342438955547
4.559999999999991,0.1062053457630843,0.001138299434863264,1.186075554047225
4.57999999999999,0.10625046433446868,0.0011840421986340256,1.1920172559052973
4.59999999999999,0.10629558220192765,0.0012297826473031783,1.197958891416389
4.6199999999999894,0.1063406991996758,0.0012755206243890383,1.2039004611762019
4.639999999999989,0.10638581533161262,0.0013212559708468375,1.2098419657846622
4.659999999999989,0.10643093060031446,0.0013669885138519143,1.2157834057272146
4.679999999999988,0.10647604483607076,0.001412718090478411,1.2217247816055687
4.699999999999988,0.10652115786827264,0.0014584445364193416,1.227666094022951
4.719999999999987,0.10656626986831735,0.001504167709529969,1.2336073438208548
4.739999999999987,0.10655536771229268,0.0015461873760205377,1.2339710848068282
4.7599999999999865,0.10662838861382228,0.0017725113017350409,1.2414821658432464
4.779999999999986,0.10667374300705623,0.0015932979252259222,1.2451737061033101
4.799999999999986,0.10671886125978539,0.0016389616650825428,1.2511143335286958
4.819999999999985,0.10676724439882587,0.0016864837852882302,1.2573462829616278
4.839999999999985,0.10680905238143444,0.0017304298145804492,1.262996843643455
4.859999999999984,0.10685417263813118,0.0017760948818269463,1.2689373770367938
4.879999999999984,0.10689927406354136,0.001821797532134792,1.2748782727041448
4.8999999999999835,0.10689927406354136,0.001821797532134792,1.2748782727041448
4.919999999999983,0.10698945642455429,0.001913228920168858,1.286760294308451
4.939999999999983,0.10698945642455429,0.001913228920168858,1.286760294308451
4.959999999999982,0.10707965362440432,0.00200459926393647,1.2986416795241422
4.979999999999982,0.10712476898918254,0.002050237852961686,1.3045819021169613
4.999999999999981,0.10716986500893251,0.002095910401787315,1.3105224644297262
